Raman Shift (cm-1),reference isoprene
3400,2.28675365447998
3399,1.95679819583893
3398,3.32775068283081
3397,9.41940212249756
3396,4.7058801651001
3395,3.62927436828613
3394,8.32154369354248
3393,7.61100625991821
3392,5.91314029693604
3391,9.99992179870605
3390,7.49827671051025
3389,-0.444496363401413
3388,7.17011499404907
3387,7.38352108001709
3386,-0.226338505744934
3385,-3.16602969169617
3384,2.77965521812439
3383,8.41067504882813
3382,6.08658218383789
3381,4.13689565658569
3380,8.58865737915039
3379,7.63124084472656
3378,9.65534114837646
3377,6.65957689285278
3376,-0.488916546106339
3375,4.7240047454834
3374,5.19398736953735
3373,5.99858331680298
3372,10.1909160614014
3371,10.6654863357544
3370,10.4517307281494
3369,10.9003009796143
3368,6.06430912017822
3367,0.642804205417633
3366,12.1965246200562
3365,12.1895427703857
3364,4.38435983657837
3363,6.30834865570068
3362,13.4067468643188
3361,8.7876672744751
3360,6.03344774246216
3359,11.6833095550537
3358,13.7996959686279
3357,10.0698394775391
3356,4.62805700302124
3355,6.58002853393555
3354,14.6147861480713
3353,12.0191478729248
3352,10.157338142395
3351,10.5219821929932
3350,10.8710289001465
3349,15.6276836395264
3348,18.5131340026855
3347,18.3953075408936
3346,16.1420650482178
3345,13.5837602615356
3344,17.3272342681885
3343,21.4794311523438
3342,23.0388984680176
3341,22.8638172149658
3340,18.4492893218994
3339,19.5490264892578
3338,25.6810035705566
3337,30.823974609375
3336,34.5368728637695
3335,32.8726425170898
3334,29.8302745819092
3333,31.0868015289307
3332,33.4838447570801
3331,25.6660575866699
3330,30.7521667480469
3329,43.3542594909668
3328,36.5782165527344
3327,34.113353729248
3326,31.1814289093018
3325,27.426628112793
3324,30.4905090332031
3323,35.4407501220703
3322,37.5539588928223
3321,33.6563911437988
3320,29.7822856903076
3319,35.4763488769531
3318,29.7696208953857
3317,22.2256145477295
3316,25.1806240081787
3315,27.9806747436523
3314,24.4864158630371
3313,25.9918880462646
3312,27.8583106994629
3311,16.9144325256348
3310,15.1669921875
3309,21.3851375579834
3308,23.1168842315674
3307,17.0964546203613
3306,15.8208465576172
3305,18.6658992767334
3304,19.3308067321777
3303,15.7815036773682
3302,13.5922250747681
3301,15.2575998306274
3300,14.6622562408447
3299,10.649658203125
3298,12.9987487792969
3297,20.6801090240479
3296,21.121955871582
3295,14.2466974258423
3294,13.6295032501221
3293,12.8649396896362
3292,7.69825506210327
3291,5.16923475265503
3290,10.4764671325684
3289,7.95670509338379
3288,8.42041492462158
3287,11.7827157974243
3286,9.70392799377441
3285,13.2147550582886
3284,10.7968397140503
3283,4.78976249694824
3282,7.52225923538208
3281,14.7757272720337
3280,8.84048080444336
3279,4.89011812210083
3278,13.8498935699463
3277,12.0163803100586
3276,10.1317596435547
3275,13.3318796157837
3274,14.5469655990601
3273,8.62285709381104
3272,9.47415161132813
3271,14.912181854248
3270,16.6841125488281
3269,13.6384115219116
3268,9.52071380615234
3267,6.6684398651123
3266,8.62370014190674
3265,14.5617818832397
3264,11.0321311950684
3263,8.97891807556152
3262,12.2393970489502
3261,11.2575521469116
3260,6.27961349487305
3259,8.47927474975586
3258,12.9681234359741
3257,10.7861051559448
3256,13.9467010498047
3255,17.0564155578613
3254,14.426778793335
3253,10.7337427139282
3252,14.6128339767456
3251,10.2424745559692
3250,4.250328540802
3249,9.72976779937744
3248,15.1080961227417
3247,4.91641092300415
3246,-1.8785148859024
3245,8.04336547851563
3244,12.2773666381836
3243,8.58866119384766
3242,7.4583044052124
3241,10.8216381072998
3240,9.04942417144775
3239,10.2067852020264
3238,12.0387544631958
3237,11.82630443573
3236,11.8064680099487
3235,4.17806959152222
3234,1.53428208827972
3233,8.50582408905029
3232,11.7209348678589
3231,10.5026206970215
3230,7.13262557983398
3229,7.34923839569092
3228,13.9232769012451
3227,14.6797428131104
3226,10.7592573165894
3225,8.79190826416016
3224,11.2182579040527
3223,14.0894327163696
3222,14.5733318328857
3221,9.13151264190674
3220,2.32680654525757
3219,13.2877445220947
3218,16.0789947509766
3217,9.51502990722656
3216,15.7437105178833
3215,20.6507472991943
3214,15.9383134841919
3213,10.5506525039673
3212,15.0760879516602
3211,20.1372547149658
3210,23.2380352020264
3209,20.0735359191895
3208,11.2339878082275
3207,11.6863641738892
3206,12.5426359176636
3205,15.5919790267944
3204,22.8801002502441
3203,14.2271375656128
3202,15.6918859481812
3201,26.4009037017822
3200,25.1857128143311
3199,20.958324432373
3198,26.8019828796387
3197,29.297290802002
3196,19.8602027893066
3195,27.8258304595947
3194,28.3159008026123
3193,22.6335411071777
3192,26.6842346191406
3191,23.2378063201904
3190,22.8003273010254
3189,29.9399261474609
3188,37.3889656066895
3187,40.1007347106934
3186,38.1032562255859
3185,33.4237594604492
3184,30.6640338897705
3183,34.4740905761719
3182,31.299654006958
3181,26.8176708221436
3180,34.0146522521973
3179,42.6275634765625
3178,41.560791015625
3177,33.9622535705566
3176,30.6885719299316
3175,34.290885925293
3174,35.9761962890625
3173,34.5056648254395
3172,35.4976234436035
3171,38.8992309570313
3170,35.805778503418
3169,35.1084098815918
3168,43.5585556030273
3167,38.0315170288086
3166,34.3697624206543
3165,38.7588043212891
3164,40.0338478088379
3163,35.4509315490723
3162,33.8838768005371
3161,37.7158660888672
3160,39.9811363220215
3159,35.7939186096191
3158,36.59912109375
3157,39.5519409179688
3156,35.1103515625
3155,36.8582458496094
3154,43.0451011657715
3153,48.6842079162598
3152,51.0769805908203
3151,46.0170593261719
3150,40.7233428955078
3149,38.3723945617676
3148,39.1975593566895
3147,52.3582649230957
3146,51.5313873291016
3145,41.9019508361816
3144,53.0741081237793
3143,52.7501678466797
3142,47.2520561218262
3141,45.2951049804688
3140,39.4947471618652
3139,40.0583763122559
3138,44.4779968261719
3137,44.4521598815918
3136,38.7397918701172
3135,38.4549789428711
3134,44.6129493713379
3133,49.8741226196289
3132,49.4703636169434
3131,52.871940612793
3130,53.9273872375488
3129,48.6821823120117
3128,47.6441955566406
3127,47.5305023193359
3126,46.2888336181641
3125,44.7847099304199
3124,44.1891899108887
3123,47.0303726196289
3122,48.562858581543
3121,49.4313697814941
3120,59.7959327697754
3119,54.0085029602051
3118,44.6361961364746
3117,54.8022346496582
3116,60.719970703125
3115,56.0010375976563
3114,51.8817138671875
3113,57.1126670837402
3112,59.6505126953125
3111,60.1090927124023
3110,62.3614654541016
3109,64.914176940918
3108,61.8858604431152
3107,65.0798110961914
3106,74.6917419433594
3105,77.5673522949219
3104,78.665771484375
3103,78.2541046142578
3102,79.144905090332
3101,87.2726287841797
3100,94.8223190307617
3099,92.083610534668
3098,86.884407043457
3097,97.2704010009766
3096,98.8185958862305
3095,98.1453323364258
3094,108.567459106445
3093,115.322395324707
3092,110.13794708252
3091,110.02685546875
3090,122.398826599121
3089,117.397438049316
3088,109.029586791992
3087,109.569747924805
3086,114.380783081055
3085,114.501083374023
3084,110.553695678711
3083,110.492584228516
3082,117.164909362793
3081,115.836952209473
3080,113.697525024414
3079,114.690582275391
3078,111.016624450684
3077,106.975654602051
3076,108.015419006348
3075,109.659515380859
3074,103.413421630859
3073,106.492164611816
3072,106.599952697754
3071,97.7987213134766
3070,106.414657592773
3069,109.349853515625
3068,101.918548583984
3067,98.6848678588867
3066,102.908638000488
3065,108.749732971191
3064,112.292892456055
3063,113.73021697998
3062,112.987182617188
3061,107.54662322998
3060,106.652763366699
3059,119.025978088379
3058,118.559234619141
3057,111.933891296387
3056,111.868286132813
3055,115.423957824707
3054,125.059684753418
3053,131.632400512695
3052,128.920715332031
3051,126.970230102539
3050,131.161804199219
3049,136.735397338867
3048,138.562118530273
3047,143.295913696289
3046,157.550582885742
3045,162.155166625977
3044,145.422180175781
3043,158.039733886719
3042,165.238922119141
3041,163.209930419922
3040,192.440643310547
3039,182.378723144531
3038,168.507308959961
3037,185.794403076172
3036,186.512344360352
3035,202.630554199219
3034,215.096282958984
3033,202.866470336914
3032,218.648635864258
3031,235.371505737305
3030,245.862274169922
3029,269.542144775391
3028,287.737213134766
3027,289.421966552734
3026,288.547241210938
3025,306.314392089844
3024,322.951263427734
3023,335.609680175781
3022,352.747131347656
3021,377.068481445313
3020,403.223571777344
3019,428.497772216797
3018,458.085571289063
3017,498.229583740234
3016,517.853576660156
3015,532.941467285156
3014,574.060974121094
3013,586.12841796875
3012,600.679870605469
3011,632.250061035156
3010,634.13232421875
3009,605.200439453125
3008,581.585327148438
3007,581.79248046875
3006,580.839294433594
3005,591.2236328125
3004,600.947998046875
3003,587.789794921875
3002,569.393615722656
3001,575.150695800781
3000,595.239379882813
2999,597.925354003906
2998,606.755187988281
2997,611.037658691406
2996,606.867370605469
2995,622.414733886719
2994,649.840759277344
2993,677.919189453125
2992,694.619873046875
2991,689.210815429688
2990,707.391052246094
2989,745.104431152344
2988,760.739074707031
2987,780.293701171875
2986,806.259521484375
2985,825.252075195313
2984,835.01220703125
2983,864.930236816406
2982,897.689331054688
2981,914.835083007813
2980,947.475463867188
2979,975.6650390625
2978,992.913024902344
2977,1017.81335449219
2976,1058.26696777344
2975,1107.92797851563
2974,1150.24853515625
2973,1173.54162597656
2972,1199.89953613281
2971,1232.2529296875
2970,1276.46716308594
2969,1357.84094238281
2968,1428.0888671875
2967,1484.79992675781
2966,1556.96301269531
2965,1605.1689453125
2964,1657.98620605469
2963,1739.99169921875
2962,1832.04418945313
2961,1939.12683105469
2960,2038.57348632813
2959,2119.27172851563
2958,2222.37939453125
2957,2346.01489257813
2956,2459.12182617188
2955,2554.5986328125
2954,2702.66772460938
2953,2858.01245117188
2952,3001.42578125
2951,3199.626953125
2950,3396.404296875
2949,3606.30712890625
2948,3884.873046875
2947,4214.783203125
2946,4523.61181640625
2945,4860.638671875
2944,5339.9130859375
2943,5853.4111328125
2942,6293.65673828125
2941,6648.123046875
2940,6978.13232421875
2939,7204.41943359375
2938,7273.17041015625
2937,7213.40234375
2936,7100.38037109375
2935,6898.58544921875
2934,6717.20068359375
2933,6733.16162109375
2932,6624.669921875
2931,6545.0048828125
2930,6719.35009765625
2929,6893.60595703125
2928,7066.50390625
2927,7237.470703125
2926,7368.9501953125
2925,7552.4833984375
2924,7637.28369140625
2923,7559.380859375
2922,7492.0625
2921,7288.8095703125
2920,6973.5224609375
2919,6699.974609375
2918,6453.97216796875
2917,6170.96435546875
2916,5889.408203125
2915,5717.60986328125
2914,5551.24658203125
2913,5358.609375
2912,5185.88427734375
2911,5060.9990234375
2910,4922.09619140625
2909,4784.0849609375
2908,4714.05859375
2907,4635.73291015625
2906,4577.01220703125
2905,4566.63330078125
2904,4533.2177734375
2903,4451.91455078125
2902,4374.41259765625
2901,4361.12109375
2900,4368.783203125
2899,4348.265625
2898,4305.97265625
2897,4290.8935546875
2896,4258.25
2895,4214.58056640625
2894,4187.39501953125
2893,4143.24755859375
2892,4147.71923828125
2891,4197.2431640625
2890,4190.67333984375
2889,4156.8740234375
2888,4155.90771484375
2887,4174.81201171875
2886,4101.31494140625
2885,4046.41259765625
2884,4090.11547851563
2883,4187.12744140625
2882,4305.11083984375
2881,4488.6904296875
2880,4755.7646484375
2879,5001.845703125
2878,5120.4970703125
2877,4992.3525390625
2876,4617.78759765625
2875,4351.8115234375
2874,4267.0703125
2873,4252.73095703125
2872,4235.025390625
2871,4218.05517578125
2870,4249.28466796875
2869,4334.287109375
2868,4344.068359375
2867,4370.91845703125
2866,4507.2724609375
2865,4668.0107421875
2864,4860.87158203125
2863,5118.966796875
2862,5452.30859375
2861,5833.201171875
2860,6277.19677734375
2859,6823.77099609375
2858,7496.2626953125
2857,8249.69140625
2856,8929.380859375
2855,9422.669921875
2854,9865.6806640625
2853,9999.5029296875
2852,9708.876953125
2851,9315.1318359375
2850,8757.8544921875
2849,8042.15625
2848,7314.7138671875
2847,6669.517578125
2846,6110.4853515625
2845,5597.13525390625
2844,5097.38232421875
2843,4638.7421875
2842,4291.83349609375
2841,4064.36547851563
2840,3775.75952148438
2839,3471.78881835938
2838,3236.00903320313
2837,3017.82592773438
2836,2800.66088867188
2835,2619.46264648438
2834,2500.94653320313
2833,2371.60107421875
2832,2249.59887695313
2831,2146.17309570313
2830,2004.65966796875
2829,1924.29064941406
2828,1861.2177734375
2827,1698.98193359375
2826,1606.13220214844
2825,1551.42395019531
2824,1454.97583007813
2823,1380.78344726563
2822,1321.37438964844
2821,1255.74328613281
2820,1186.54650878906
2819,1135.83752441406
2818,1073.01123046875
2817,986.7421875
2816,946.893737792969
2815,931.452575683594
2814,901.851440429688
2813,850.785034179688
2812,798.014587402344
2811,763.275634765625
2810,750.487976074219
2809,738.411071777344
2808,698.366027832031
2807,642.622009277344
2806,620.692993164063
2805,622.740478515625
2804,618.141479492188
2803,594.920166015625
2802,586.795593261719
2801,581.109191894531
2800,563.781555175781
2799,549.797302246094
2798,536.230651855469
2797,516.982666015625
2796,489.75
2795,458.232299804688
2794,444.313903808594
2793,446.138793945313
2792,420.074645996094
2791,385.754180908203
2790,369.798614501953
2789,370.645477294922
2788,353.212371826172
2787,328.711730957031
2786,318.218597412109
2785,302.342529296875
2784,304.360137939453
2783,315.075805664063
2782,288.697845458984
2781,277.481323242188
2780,275.363800048828
2779,248.561340332031
2778,243.249084472656
2777,244.248764038086
2776,230.960098266602
2775,223.340759277344
2774,215.248321533203
2773,211.702026367188
2772,223.110137939453
2771,221.721069335938
2770,210.787979125977
2769,207.872543334961
2768,210.70068359375
2767,201.645874023438
2766,185.058456420898
2765,184.779327392578
2764,177.67317199707
2763,164.694427490234
2762,162.983581542969
2761,163.040863037109
2760,163.829803466797
2759,166.119659423828
2758,164.959503173828
2757,160.983901977539
2756,154.543228149414
2755,145.703048706055
2754,140.201797485352
2753,139.251342773438
2752,140.102035522461
2751,139.562652587891
2750,134.499969482422
2749,126.380035400391
2748,122.581588745117
2747,129.577026367188
2746,138.815307617188
2745,138.390350341797
2744,139.875381469727
2743,138.767425537109
2742,131.651123046875
2741,132.623840332031
2740,128.529266357422
2739,120.210609436035
2738,128.266967773438
2737,138.232192993164
2736,139.950424194336
2735,137.184448242188
2734,140.739181518555
2733,146.65673828125
2732,146.662521362305
2731,140.952194213867
2730,140.369644165039
2729,147.571929931641
2728,151.972518920898
2727,142.961547851563
2726,139.995056152344
2725,156.65788269043
2724,151.09992980957
2723,147.908828735352
2722,163.648529052734
2721,157.761978149414
2720,151.689147949219
2719,158.655258178711
2718,163.995529174805
2717,167.070816040039
2716,171.400207519531
2715,178.589004516602
2714,185.598266601563
2713,197.153701782227
2712,212.261535644531
2711,218.573089599609
2710,222.763854980469
2709,230.719879150391
2708,242.061294555664
2707,260.723510742188
2706,275.865631103516
2705,281.738739013672
2704,306.030853271484
2703,337.322570800781
2702,363.049896240234
2701,402.461853027344
2700,464.922332763672
2699,521.239685058594
2698,527.309265136719
2697,520.164978027344
2696,526.349853515625
2695,535.71337890625
2694,511.897613525391
2693,484.597808837891
2692,485.537261962891
2691,488.941772460938
2690,491.856628417969
2689,489.362121582031
2688,473.841033935547
2687,484.787078857422
2686,504.719146728516
2685,487.683532714844
2684,469.920074462891
2683,471.605407714844
2682,480.083038330078
2681,464.694244384766
2680,456.204772949219
2679,472.427795410156
2678,482.083526611328
2677,480.803192138672
2676,488.970367431641
2675,522.501953125
2674,539.171630859375
2673,560.188232421875
2672,618.200561523438
2671,659.963500976563
2670,694.105346679688
2669,750.049072265625
2668,824.328063964844
2667,879.934936523438
2666,905.379516601563
2665,925.571228027344
2664,940.428894042969
2663,928.291748046875
2662,876.233093261719
2661,826.083312988281
2660,778.526123046875
2659,717.854553222656
2658,657.992797851563
2657,609.775146484375
2656,569.035888671875
2655,520.92724609375
2654,483.119110107422
2653,455.280548095703
2652,420.805328369141
2651,411.401733398438
2650,408.899322509766
2649,376.902954101563
2648,352.386352539063
2647,334.993957519531
2646,315.837677001953
2645,317.265686035156
2644,313.949493408203
2643,299.519866943359
2642,309.132080078125
2641,303.941558837891
2640,292.852752685547
2639,325.576721191406
2638,336.973419189453
2637,345.411163330078
2636,408.584259033203
2635,468.729187011719
2634,515.509094238281
2633,548.295227050781
2632,520.657470703125
2631,458.587371826172
2630,400.862487792969
2629,355.2822265625
2628,328.616882324219
2627,315.145904541016
2626,299.204376220703
2625,281.104644775391
2624,268.509338378906
2623,266.88330078125
2622,267.686279296875
2621,260.715850830078
2620,248.868301391602
2619,255.372817993164
2618,258.552795410156
2617,242.391510009766
2616,233.298202514648
2615,240.153564453125
2614,247.537216186523
2613,234.562347412109
2612,240.515487670898
2611,261.070373535156
2610,256.798187255859
2609,256.421630859375
2608,264.312194824219
2607,262.891143798828
2606,252.197555541992
2605,251.835357666016
2604,265.671997070313
2603,257.898406982422
2602,246.4775390625
2601,249.139923095703
2600,249.256164550781
2599,248.335357666016
2598,245.492126464844
2597,233.418319702148
2596,222.40885925293
2595,217.1044921875
2594,213.602111816406
2593,210.069213867188
2592,199.746978759766
2591,183.936752319336
2590,188.149002075195
2589,197.078826904297
2588,192.182037353516
2587,192.750183105469
2586,193.905960083008
2585,188.189529418945
2584,182.952026367188
2583,183.712295532227
2582,186.484085083008
2581,180.578125
2580,170.041946411133
2579,170.147964477539
2578,189.312545776367
2577,193.045455932617
2576,182.423202514648
2575,179.635559082031
2574,172.669799804688
2573,160.998519897461
2572,151.453918457031
2571,143.904754638672
2570,139.702011108398
2569,139.360748291016
2568,139.579086303711
2567,134.70751953125
2566,126.843544006348
2565,125.74201965332
2564,120.981323242188
2563,113.495582580566
2562,117.124565124512
2561,116.57852935791
2560,111.397827148438
2559,114.390464782715
2558,114.794311523438
2557,113.770217895508
2556,115.612594604492
2555,102.621017456055
2554,94.2615737915039
2553,109.837921142578
2552,117.534652709961
2551,118.076362609863
2550,120.005676269531
2549,113.341415405273
2548,112.048980712891
2547,120.152297973633
2546,116.405807495117
2545,109.112129211426
2544,106.585815429688
2543,105.351898193359
2542,109.411666870117
2541,113.477378845215
2540,107.458534240723
2539,106.818161010742
2538,112.915863037109
2537,114.897483825684
2536,117.483612060547
2535,119.483978271484
2534,118.125846862793
2533,121.895240783691
2532,124.01399230957
2531,120.49739074707
2530,131.795471191406
2529,144.292465209961
2528,143.611404418945
2527,145.633056640625
2526,141.037567138672
2525,126.799690246582
2524,124.706436157227
2523,131.343292236328
2522,135.537704467773
2521,132.311920166016
2520,130.64518737793
2519,128.706069946289
2518,114.997657775879
2517,108.606170654297
2516,113.709350585938
2515,115.762626647949
2514,114.989547729492
2513,115.808639526367
2512,120.253707885742
2511,121.671516418457
2510,116.379737854004
2509,107.407516479492
2508,105.219032287598
2507,107.979049682617
2506,107.067535400391
2505,99.7344055175781
2504,97.4076309204102
2503,105.41919708252
2502,104.870628356934
2501,97.4598388671875
2500,95.486213684082
2499,105.611152648926
2498,107.566246032715
2497,97.7181701660156
2496,106.535087585449
2495,113.947410583496
2494,107.091529846191
2493,106.147239685059
2492,110.703941345215
2491,114.476867675781
2490,114.70915222168
2489,115.043334960938
2488,117.553184509277
2487,123.000793457031
2486,140.225769042969
2485,152.43603515625
2484,133.459289550781
2483,117.171043395996
2482,115.551200866699
2481,114.997901916504
2480,117.871978759766
2479,119.244689941406
2478,113.919906616211
2477,117.627151489258
2476,123.681442260742
2475,120.258277893066
2474,126.590492248535
2473,132.089782714844
2472,121.907089233398
2471,119.973052978516
2470,125.580207824707
2469,126.840492248535
2468,125.899856567383
2467,131.020736694336
2466,143.421844482422
2465,148.805068969727
2464,150.310546875
2463,152.077682495117
2462,147.186264038086
2461,153.354415893555
2460,172.857986450195
2459,171.992370605469
2458,163.976257324219
2457,166.689086914063
2456,173.861282348633
2455,176.570678710938
2454,171.448547363281
2453,162.490783691406
2452,150.365997314453
2451,141.680328369141
2450,147.306701660156
2449,152.406509399414
2448,148.876937866211
2447,145.224334716797
2446,142.138275146484
2445,135.961868286133
2444,125.097198486328
2443,124.736450195313
2442,132.571136474609
2441,130.170623779297
2440,129.618728637695
2439,133.627990722656
2438,131.728424072266
2437,130.814804077148
2436,130.525939941406
2435,123.697257995605
2434,118.863952636719
2433,116.423957824707
2432,110.999168395996
2431,113.74787902832
2430,118.528305053711
2429,110.359603881836
2428,104.911735534668
2427,106.809272766113
2426,108.299407958984
2425,108.900657653809
2424,107.317832946777
2423,102.818267822266
2422,101.608390808105
2421,102.617980957031
2420,101.500961303711
2419,103.443618774414
2418,106.84481048584
2417,105.140083312988
2416,96.9232482910156
2415,93.0306243896484
2414,102.834007263184
2413,109.807327270508
2412,109.429077148438
2411,106.579849243164
2410,99.9448089599609
2409,92.9216537475586
2408,91.4433517456055
2407,96.5174789428711
2406,97.9929428100586
2405,88.4342269897461
2404,84.8943939208984
2403,92.1713256835938
2402,100.670112609863
2401,94.9105758666992
2400,90.5121078491211
2399,103.114151000977
2398,97.5807342529297
2397,85.1761932373047
2396,92.3262557983398
2395,93.7434005737305
2394,90.9255676269531
2393,96.7047882080078
2392,95.2473220825195
2391,93.3028335571289
2390,102.583229064941
2389,103.44751739502
2388,101.075958251953
2387,109.583908081055
2386,115.684684753418
2385,118.184623718262
2384,120.872589111328
2383,113.15291595459
2382,104.238945007324
2381,109.165786743164
2380,118.308540344238
2379,120.134437561035
2378,111.11563873291
2377,104.586463928223
2376,108.922904968262
2375,121.412452697754
2374,125.670433044434
2373,124.952087402344
2372,131.952499389648
2371,141.109985351563
2370,147.082977294922
2369,148.239532470703
2368,146.066787719727
2367,141.066329956055
2366,136.701858520508
2365,147.097869873047
2364,160.004730224609
2363,153.035842895508
2362,142.43229675293
2361,144.40283203125
2360,158.342147827148
2359,152.329284667969
2358,139.79345703125
2357,157.098419189453
2356,168.954360961914
2355,166.694961547852
2354,171.627380371094
2353,176.380249023438
2352,173.599548339844
2351,165.790573120117
2350,167.748458862305
2349,177.65478515625
2348,177.836532592773
2347,165.182693481445
2346,151.850357055664
2345,154.227722167969
2344,156.091262817383
2343,149.112762451172
2342,142.5595703125
2341,140.403045654297
2340,141.609130859375
2339,141.635284423828
2338,137.221725463867
2337,130.256973266602
2336,128.154998779297
2335,136.080917358398
2334,144.138290405273
2333,130.494079589844
2332,115.164184570313
2331,118.559791564941
2330,135.491241455078
2329,139.963577270508
2328,126.954879760742
2327,129.560089111328
2326,134.459518432617
2325,126.439979553223
2324,121.720779418945
2323,118.30558013916
2322,112.891960144043
2321,116.424171447754
2320,120.880462646484
2319,114.90266418457
2318,102.986419677734
2317,98.0659561157227
2316,106.156982421875
2315,110.436790466309
2314,104.06022644043
2313,93.705078125
2312,97.0101165771484
2311,105.009986877441
2310,100.730072021484
2309,98.4389572143555
2308,100.861541748047
2307,100.149185180664
2306,96.2414093017578
2305,91.557975769043
2304,89.8480377197266
2303,96.162727355957
2302,101.732757568359
2301,92.3266754150391
2300,84.5419006347656
2299,85.6505966186523
2298,86.3894500732422
2297,84.828857421875
2296,83.6477203369141
2295,86.6236419677734
2294,89.4197692871094
2293,91.1895904541016
2292,97.1151275634766
2291,99.3637542724609
2290,93.1966323852539
2289,86.2916030883789
2288,87.3166275024414
2287,94.9469680786133
2286,93.5232620239258
2285,89.4186553955078
2284,90.7989730834961
2283,87.9862670898438
2282,83.0987014770508
2281,82.3850860595703
2280,83.6389999389648
2279,83.5360641479492
2278,81.591194152832
2277,83.8650283813477
2276,85.5312271118164
2275,80.2664489746094
2274,83.2852249145508
2273,90.8274765014648
2272,87.4576797485352
2271,86.8497543334961
2270,92.6411819458008
2269,95.4528198242188
2268,101.164093017578
2267,106.846229553223
2266,99.9898071289063
2265,95.9318237304688
2264,103.443145751953
2263,111.027206420898
2262,112.264984130859
2261,107.726005554199
2260,104.614372253418
2259,107.084266662598
2258,113.528984069824
2257,115.741790771484
2256,114.547729492188
2255,115.857444763184
2254,123.965042114258
2253,129.813369750977
2252,126.365631103516
2251,132.456237792969
2250,141.965866088867
2249,136.625549316406
2248,130.168106079102
2247,126.755790710449
2246,121.020713806152
2245,126.898330688477
2244,140.326080322266
2243,139.090667724609
2242,132.814926147461
2241,130.903701782227
2240,130.195297241211
2239,131.63508605957
2238,133.907806396484
2237,130.931915283203
2236,129.049835205078
2235,133.475708007813
2234,136.68000793457
2233,136.620712280273
2232,137.029968261719
2231,144.884201049805
2230,153.202667236328
2229,151.236419677734
2228,145.93342590332
2227,145.946472167969
2226,153.680130004883
2225,154.301254272461
2224,149.752838134766
2223,156.034118652344
2222,157.33821105957
2221,149.377593994141
2220,149.263565063477
2219,146.334213256836
2218,137.252578735352
2217,141.798049926758
2216,144.696075439453
2215,133.3095703125
2214,130.449798583984
2213,135.523635864258
2212,136.645751953125
2211,133.474761962891
2210,133.164901733398
2209,139.941513061523
2208,137.17936706543
2207,125.825759887695
2206,122.220039367676
2205,126.311347961426
2204,130.757690429688
2203,127.709014892578
2202,124.058860778809
2201,121.903923034668
2200,112.820747375488
2199,109.744369506836
2198,116.789131164551
2197,109.305084228516
2196,99.2388000488281
2195,103.586166381836
2194,102.746726989746
2193,96.4475860595703
2192,96.1167984008789
2191,97.2786483764648
2190,98.8223876953125
2189,102.14372253418
2188,96.4650650024414
2187,85.3341979980469
2186,87.0835189819336
2185,93.7967376708984
2184,97.2027282714844
2183,100.629997253418
2182,99.7863006591797
2181,93.25
2180,90.8085250854492
2179,89.1633453369141
2178,85.2256317138672
2177,95.145637512207
2176,108.085823059082
2175,102.766082763672
2174,97.629997253418
2173,97.9384613037109
2172,92.1548080444336
2171,88.2769393920898
2170,90.4808349609375
2169,92.0985946655273
2168,95.3052444458008
2167,102.676330566406
2166,110.441436767578
2165,107.904052734375
2164,93.2825317382813
2163,90.2497329711914
2162,99.7678298950195
2161,108.223014831543
2160,112.804542541504
2159,114.81583404541
2158,115.753051757813
2157,110.565254211426
2156,102.357971191406
2155,103.101852416992
2154,106.39582824707
2153,104.171539306641
2152,97.5114212036133
2151,92.2704620361328
2150,92.3730773925781
2149,93.3359298706055
2148,92.7323913574219
2147,90.7807540893555
2146,89.1455230712891
2145,89.7995147705078
2144,93.6349029541016
2143,96.8098754882813
2142,97.0109329223633
2141,95.2353210449219
2140,91.5667190551758
2139,89.1772613525391
2138,95.2348861694336
2137,99.7225189208984
2136,94.2000503540039
2135,94.2859039306641
2134,96.7282943725586
2133,90.0915374755859
2132,89.1420745849609
2131,96.4935073852539
2130,99.1703643798828
2129,94.1584396362305
2128,89.3134994506836
2127,98.5113754272461
2126,104.481994628906
2125,95.220703125
2124,92.6417846679688
2123,97.4100723266602
2122,99.8268356323242
2121,102.884376525879
2120,103.873817443848
2119,97.6126403808594
2118,94.9333724975586
2117,96.2496337890625
2116,89.5335159301758
2115,88.4246597290039
2114,98.9533920288086
2113,100.989898681641
2112,93.2061309814453
2111,86.0126190185547
2110,89.7762985229492
2109,94.7995834350586
2108,85.5365295410156
2107,77.0779647827148
2106,74.2786254882813
2105,67.888557434082
2104,67.0966567993164
2103,72.7884521484375
2102,67.9870834350586
2101,64.537223815918
2100,73.1021881103516
2099,72.7612457275391
2098,65.5847854614258
2097,65.4855194091797
2096,65.0195388793945
2095,62.0167083740234
2094,62.1156845092773
2093,63.1141700744629
2092,63.5972747802734
2091,66.0895614624023
2090,68.0655822753906
2089,66.319450378418
2088,61.5997619628906
2087,58.9587898254395
2086,62.6137657165527
2085,66.4638900756836
2084,66.0912704467773
2083,62.2983322143555
2082,63.5638046264648
2081,70.8333129882813
2080,72.8802947998047
2079,70.2448348999023
2078,66.6757049560547
2077,61.08544921875
2076,59.1452560424805
2075,67.2420272827148
2074,78.2019805908203
2073,84.7521057128906
2072,83.7332992553711
2071,79.4741592407227
2070,78.2235717773438
2069,84.1543807983398
2068,89.2498474121094
2067,86.9117050170898
2066,85.7509460449219
2065,84.753288269043
2064,79.1294021606445
2063,79.6386108398438
2062,84.0522079467773
2061,77.5624771118164
2060,72.9362869262695
2059,77.9597473144531
2058,78.555549621582
2057,77.0581970214844
2056,81.2168045043945
2055,87.7304306030273
2054,90.9485778808594
2053,86.89306640625
2052,80.2840347290039
2051,78.3422088623047
2050,85.7024765014648
2049,87.8466491699219
2048,76.5778198242188
2047,68.3553619384766
2046,66.9647445678711
2045,67.5878143310547
2044,68.2585830688477
2043,69.7794570922852
2042,73.0003356933594
2041,69.1696701049805
2040,59.780086517334
2039,62.2091598510742
2038,68.5439605712891
2037,66.9925994873047
2036,65.6619491577148
2035,67.0068664550781
2034,67.0637359619141
2033,61.908821105957
2032,56.7886352539063
2031,63.2010345458984
2030,66.0593032836914
2029,58.9413108825684
2028,66.5786056518555
2027,78.396598815918
2026,71.4199600219727
2025,55.9098205566406
2024,47.865306854248
2023,56.8733825683594
2022,63.2852783203125
2021,59.0853385925293
2020,63.6456527709961
2019,66.1231384277344
2018,55.2214393615723
2017,56.4839324951172
2016,65.9769134521484
2015,61.2248725891113
2014,58.7414665222168
2013,63.9024391174316
2012,58.9701919555664
2011,53.9792022705078
2010,58.8324813842773
2009,58.447452545166
2008,51.6842155456543
2007,48.2535095214844
2006,53.955867767334
2005,64.8911895751953
2004,69.1229629516602
2003,65.3351364135742
2002,59.4626388549805
2001,61.6162528991699
2000,66.1130981445313
1999,63.422679901123
1998,62.2658920288086
1997,65.6846389770508
1996,68.7372283935547
1995,72.3954925537109
1994,75.9474182128906
1993,73.6648941040039
1992,69.7751846313477
1991,70.3869094848633
1990,71.2207641601563
1989,72.7732086181641
1988,78.8058090209961
1987,80.3412780761719
1986,75.5425643920898
1985,77.4225845336914
1984,85.3200302124023
1983,92.6198501586914
1982,97.1481857299805
1981,98.0731811523438
1980,96.4158401489258
1979,98.8689193725586
1978,106.492790222168
1977,110.862411499023
1976,109.404861450195
1975,103.757453918457
1974,97.8639907836914
1973,95.0537796020508
1972,95.926872253418
1971,92.9646835327148
1970,87.168815612793
1969,91.2745666503906
1968,94.6405563354492
1967,88.3679885864258
1966,93.1577987670898
1965,102.060661315918
1964,91.8411254882813
1963,80.1191329956055
1962,80.8169708251953
1961,87.5060195922852
1960,92.4966659545898
1959,92.6808700561523
1958,95.0670394897461
1957,99.0140609741211
1956,98.0345764160156
1955,92.8194046020508
1954,86.9896697998047
1953,85.0245513916016
1952,87.822624206543
1951,92.4543304443359
1950,91.4801635742188
1949,85.3358535766602
1948,81.2493057250977
1947,84.0374526977539
1946,89.9034118652344
1945,85.8137664794922
1944,78.4759140014648
1943,78.4482040405273
1942,78.9065017700195
1941,77.1914825439453
1940,76.2965927124023
1939,75.9585800170898
1938,74.7779922485352
1937,71.5287780761719
1936,67.7331466674805
1935,65.9233245849609
1934,67.0791015625
1933,70.6664657592773
1932,74.7056198120117
1931,76.0142211914063
1930,74.8747863769531
1929,77.2998428344727
1928,78.9608383178711
1927,73.0697326660156
1926,66.636833190918
1925,65.678466796875
1924,70.596061706543
1923,72.7951354980469
1922,69.6225128173828
1921,75.077880859375
1920,82.1247253417969
1919,75.0983810424805
1918,66.5270004272461
1917,65.6480712890625
1916,68.9528503417969
1915,71.2214508056641
1914,70.2271575927734
1913,71.2404937744141
1912,74.9893188476563
1911,77.6621322631836
1910,75.808464050293
1909,72.0404815673828
1908,75.7717132568359
1907,78.8956298828125
1906,72.4152908325195
1905,70.9705963134766
1904,76.6881256103516
1903,78.1667861938477
1902,78.6326751708984
1901,82.0306243896484
1900,84.2431335449219
1899,80.7833709716797
1898,71.0774383544922
1897,66.7481079101563
1896,73.1930770874023
1895,84.3224411010742
1894,87.4398193359375
1893,78.5542144775391
1892,77.3503189086914
1891,82.1454696655273
1890,77.634147644043
1889,76.11572265625
1888,84.1049575805664
1887,88.7877426147461
1886,86.6862640380859
1885,81.5830383300781
1884,80.5671615600586
1883,83.8217163085938
1882,85.3846817016602
1881,88.3925628662109
1880,93.2144393920898
1879,89.4273681640625
1878,83.1663055419922
1877,87.6103363037109
1876,94.1232681274414
1875,94.8314590454102
1874,90.7226638793945
1873,88.2675933837891
1872,93.0851135253906
1871,101.978492736816
1870,104.010513305664
1869,88.5955123901367
1868,78.9795227050781
1867,88.1871948242188
1866,92.3632049560547
1865,92.3249282836914
1864,100.691566467285
1863,103.614784240723
1862,96.5935440063477
1861,92.9248962402344
1860,90.5250930786133
1859,85.8109588623047
1858,90.5099105834961
1857,102.344512939453
1856,106.55485534668
1855,102.518196105957
1854,96.7292098999023
1853,98.54296875
1852,103.257675170898
1851,101.09358215332
1850,99.0881729125977
1849,102.744651794434
1848,109.9296875
1847,114.398803710938
1846,111.032958984375
1845,102.50904083252
1844,97.0954666137695
1843,103.701393127441
1842,111.321701049805
1841,109.994232177734
1840,105.151290893555
1839,102.241722106934
1838,104.018577575684
1837,107.366676330566
1836,108.588623046875
1835,105.78776550293
1834,101.965194702148
1833,101.284645080566
1832,103.670120239258
1831,105.464088439941
1830,102.064254760742
1829,102.253913879395
1828,109.600624084473
1827,106.028465270996
1826,96.4517288208008
1825,100.583549499512
1824,107.608985900879
1823,107.65502166748
1822,107.158912658691
1821,107.243507385254
1820,106.154754638672
1819,107.155685424805
1818,109.376937866211
1817,106.450637817383
1816,101.863182067871
1815,102.044784545898
1814,107.703994750977
1813,113.164138793945
1812,110.14298248291
1811,107.472625732422
1810,112.303237915039
1809,115.24186706543
1808,111.616493225098
1807,103.440223693848
1806,98.739616394043
1805,102.088264465332
1804,109.34806060791
1803,112.20329284668
1802,104.983795166016
1801,98.8560485839844
1800,100.30778503418
1799,104.704132080078
1798,106.119651794434
1797,102.382606506348
1796,102.221313476563
1795,106.023910522461
1794,105.086906433105
1793,101.807006835938
1792,100.574272155762
1791,99.83251953125
1790,97.6275634765625
1789,94.2008285522461
1788,99.187126159668
1787,114.95475769043
1786,126.174621582031
1785,130.29313659668
1784,133.393081665039
1783,134.1728515625
1782,133.652893066406
1781,138.463760375977
1780,146.783203125
1779,152.732925415039
1778,154.506576538086
1777,151.03450012207
1776,141.720245361328
1775,131.246856689453
1774,124.630043029785
1773,120.659980773926
1772,118.493919372559
1771,117.913635253906
1770,112.652412414551
1769,102.09147644043
1768,103.48592376709
1767,114.518531799316
1766,116.761001586914
1765,113.733383178711
1764,111.708473205566
1763,107.389663696289
1762,104.313934326172
1761,108.973129272461
1760,112.625648498535
1759,110.143463134766
1758,109.638618469238
1757,112.378868103027
1756,114.266250610352
1755,111.949272155762
1754,108.140899658203
1753,112.675819396973
1752,119.540962219238
1751,118.214920043945
1750,116.140754699707
1749,118.45157623291
1748,121.993881225586
1747,122.129615783691
1746,117.203712463379
1745,115.767349243164
1744,119.661811828613
1743,121.711936950684
1742,122.632148742676
1741,125.165550231934
1740,127.109252929688
1739,127.44189453125
1738,127.237823486328
1737,127.551383972168
1736,128.788116455078
1735,130.160766601563
1734,135.835174560547
1733,150.737609863281
1732,155.106872558594
1731,140.626815795898
1730,141.821807861328
1729,156.660430908203
1728,154.371932983398
1727,147.975845336914
1726,152.244689941406
1725,155.833923339844
1724,158.907440185547
1723,169.442184448242
1722,175.791046142578
1721,172.142654418945
1720,173.573425292969
1719,176.595642089844
1718,168.432708740234
1717,165.484436035156
1716,174.683517456055
1715,173.777038574219
1714,164.624496459961
1713,163.666854858398
1712,167.79997253418
1711,170.002838134766
1710,166.49284362793
1709,163.457397460938
1708,168.782791137695
1707,170.931686401367
1706,168.525955200195
1705,180.838226318359
1704,192.469024658203
1703,179.269287109375
1702,174.429901123047
1701,191.935241699219
1700,198.488357543945
1699,192.389083862305
1698,190.10285949707
1697,192.975021362305
1696,201.226364135742
1695,217.64778137207
1694,232.719039916992
1693,234.430648803711
1692,229.84016418457
1691,229.4228515625
1690,240.123809814453
1689,247.420562744141
1688,235.325149536133
1687,228.683929443359
1686,239.070159912109
1685,247.336059570313
1684,251.682022094727
1683,256.928955078125
1682,249.380416870117
1681,233.503875732422
1680,241.684417724609
1679,261.869445800781
1678,265.852355957031
1677,269.01318359375
1676,278.915466308594
1675,279.07470703125
1674,274.52490234375
1673,280.586059570313
1672,297.404846191406
1671,318.581848144531
1670,333.890380859375
1669,338.537078857422
1668,335.751159667969
1667,345.692596435547
1666,374.456634521484
1665,401.743286132813
1664,422.463958740234
1663,442.817932128906
1662,468.940673828125
1661,497.902160644531
1660,515.131774902344
1659,538.646728515625
1658,595.229309082031
1657,652.340026855469
1656,691.984619140625
1655,745.24853515625
1654,819.115600585938
1653,904.682189941406
1652,1013.71398925781
1651,1149.57775878906
1650,1292.38244628906
1649,1454.84851074219
1648,1670.24145507813
1647,1942.49475097656
1646,2256.44775390625
1645,2579.44555664063
1644,2900.45068359375
1643,3219.72387695313
1642,3495.6982421875
1641,3703.81640625
1640,3880.70092773438
1639,4009.25268554688
1638,4024.33422851563
1637,3895.70190429688
1636,3637.91333007813
1635,3334.4306640625
1634,3026.77075195313
1633,2710.046875
1632,2399.01000976563
1631,2115.95532226563
1630,1879.34521484375
1629,1685.83410644531
1628,1513.96740722656
1627,1374.93200683594
1626,1274.77087402344
1625,1163.6650390625
1624,1036.56567382813
1623,946.449096679688
1622,891.085021972656
1621,842.183288574219
1620,784.308654785156
1619,725.163269042969
1618,694.733520507813
1617,673.844665527344
1616,628.393859863281
1615,577.443237304688
1614,540.122924804688
1613,516.614074707031
1612,502.929718017578
1611,492.731567382813
1610,477.008361816406
1609,453.190704345703
1608,430.566650390625
1607,410.352020263672
1606,389.319274902344
1605,377.410400390625
1604,378.828094482422
1603,378.106658935547
1602,368.538208007813
1601,354.196746826172
1600,344.945007324219
1599,345.843109130859
1598,345.919067382813
1597,342.215576171875
1596,341.031402587891
1595,337.971832275391
1594,326.804656982422
1593,310.50244140625
1592,296.595886230469
1591,294.376892089844
1590,296.682861328125
1589,293.542175292969
1588,296.128967285156
1587,303.514465332031
1586,293.243743896484
1585,276.903259277344
1584,279.254241943359
1583,281.855346679688
1582,275.128936767578
1581,283.731811523438
1580,299.226104736328
1579,292.858367919922
1578,281.498840332031
1577,282.028442382813
1576,278.356842041016
1575,272.315856933594
1574,281.332550048828
1573,283.238525390625
1572,260.484344482422
1571,253.163955688477
1570,269.566223144531
1569,273.423065185547
1568,268.727508544922
1567,272.40283203125
1566,267.955444335938
1565,252.587631225586
1564,252.167694091797
1563,266.194122314453
1562,276.7109375
1561,272.959716796875
1560,257.42041015625
1559,251.916168212891
1558,255.706237792969
1557,252.341720581055
1556,254.562393188477
1555,269.812408447266
1554,268.042144775391
1553,251.33366394043
1552,255.749938964844
1551,269.378967285156
1550,269.391632080078
1549,273.068206787109
1548,289.192993164063
1547,305.498443603516
1546,324.352874755859
1545,353.195037841797
1544,378.520080566406
1543,391.651763916016
1542,402.217407226563
1541,416.686920166016
1540,434.111083984375
1539,434.464019775391
1538,404.186248779297
1537,360.975555419922
1536,323.159790039063
1535,302.6591796875
1534,293.197296142578
1533,283.867645263672
1532,276.741394042969
1531,275.012908935547
1530,279.350402832031
1529,285.650054931641
1528,287.844787597656
1527,284.437072753906
1526,279.052459716797
1525,281.797576904297
1524,288.544616699219
1523,285.389739990234
1522,279.406860351563
1521,282.961395263672
1520,299.844696044922
1519,318.864196777344
1518,316.786804199219
1517,307.838623046875
1516,316.183441162109
1515,325.461090087891
1514,327.590850830078
1513,341.433502197266
1512,359.058532714844
1511,358.087615966797
1510,357.186767578125
1509,372.452697753906
1508,383.108856201172
1507,385.503265380859
1506,396.168334960938
1505,407.223541259766
1504,407.186676025391
1503,412.891296386719
1502,434.676544189453
1501,464.251129150391
1500,485.313293457031
1499,485.49609375
1498,493.311248779297
1497,526.114807128906
1496,553.074096679688
1495,567.528259277344
1494,589.353637695313
1493,617.315246582031
1492,643.244018554688
1491,668.427429199219
1490,693.212951660156
1489,714.616516113281
1488,735.693115234375
1487,761.728820800781
1486,789.12646484375
1485,812.768676757813
1484,830.365295410156
1483,852.271484375
1482,895.164978027344
1481,936.534606933594
1480,952.118896484375
1479,965.841735839844
1478,999.609191894531
1477,1057.82299804688
1476,1122.61950683594
1475,1170.24291992188
1474,1215.08911132813
1473,1275.509765625
1472,1354.38598632813
1471,1455.98510742188
1470,1583.56457519531
1469,1707.76831054688
1468,1797.1669921875
1467,1862.59265136719
1466,1932.29028320313
1465,2042.71850585938
1464,2167.05786132813
1463,2247.12231445313
1462,2295.69067382813
1461,2347.89526367188
1460,2436.49975585938
1459,2579.96264648438
1458,2778.30981445313
1457,3001.37817382813
1456,3215.93237304688
1455,3431.64892578125
1454,3663.50512695313
1453,3919.10668945313
1452,4204.0478515625
1451,4517.94921875
1450,4831.107421875
1449,5116.6767578125
1448,5382.826171875
1447,5624.38330078125
1446,5815.2216796875
1445,5952.29345703125
1444,6033.04541015625
1443,5995.45068359375
1442,5820.31640625
1441,5599.57275390625
1440,5376.57861328125
1439,5139.29931640625
1438,4888.50244140625
1437,4632.8173828125
1436,4384.6572265625
1435,4156.83935546875
1434,3959.7353515625
1433,3777.21411132813
1432,3588.6123046875
1431,3451.9365234375
1430,3395.19799804688
1429,3311.90209960938
1428,3172.57763671875
1427,3054.56201171875
1426,2980.76684570313
1425,2932.40063476563
1424,2860.07470703125
1423,2740.43188476563
1422,2612.54321289063
1421,2482.19506835938
1420,2325.61962890625
1419,2176.03442382813
1418,2071.75366210938
1417,1983.1767578125
1416,1885.76318359375
1415,1783.99377441406
1414,1688.61791992188
1413,1608.1875
1412,1521.92016601563
1411,1420.333984375
1410,1349.29467773438
1409,1313.4013671875
1408,1258.73376464844
1407,1175.68505859375
1406,1087.36572265625
1405,1030.3642578125
1404,1016.68743896484
1403,999.233825683594
1402,959.425537109375
1401,915.432739257813
1400,876.604614257813
1399,846.61669921875
1398,828.346557617188
1397,822.475036621094
1396,825.382141113281
1395,820.325439453125
1394,787.02001953125
1393,760.752319335938
1392,776.698669433594
1391,791.728210449219
1390,779.985290527344
1389,765.390197753906
1388,759.38525390625
1387,759.773559570313
1386,759.880981445313
1385,755.691772460938
1384,754.650817871094
1383,757.867248535156
1382,755.919494628906
1381,747.161987304688
1380,734.876220703125
1379,717.845642089844
1378,698.5361328125
1377,691.589721679688
1376,698.641357421875
1375,704.653991699219
1374,706.156799316406
1373,706.5732421875
1372,705.929931640625
1371,705.744812011719
1370,712.757019042969
1369,727.624084472656
1368,743.205444335938
1367,748.285949707031
1366,738.197509765625
1365,744.217407226563
1364,785.095092773438
1363,835.959106445313
1362,872.536804199219
1361,881.975280761719
1360,899.650634765625
1359,964.542602539063
1358,1035.39184570313
1357,1080.517578125
1356,1121.89721679688
1355,1177.16967773438
1354,1252.80944824219
1353,1343.11279296875
1352,1436.70300292969
1351,1522.06311035156
1350,1587.72814941406
1349,1623.41027832031
1348,1638.97009277344
1347,1656.36889648438
1346,1651.96887207031
1345,1594.880859375
1344,1502.88427734375
1343,1402.70532226563
1342,1317.05187988281
1341,1248.24755859375
1340,1183.27294921875
1339,1125.59216308594
1338,1079.23071289063
1337,1024.41491699219
1336,959.247436523438
1335,918.232482910156
1334,898.798889160156
1333,868.743225097656
1332,837.021057128906
1331,823.891906738281
1330,824.10009765625
1329,823.333984375
1328,802.465454101563
1327,764.815490722656
1326,732.771606445313
1325,721.404602050781
1324,734.705749511719
1323,750.826477050781
1322,756.023071289063
1321,759.784606933594
1320,766.652221679688
1319,775.185363769531
1318,787.894470214844
1317,808.186584472656
1316,835.68798828125
1315,864.034790039063
1314,879.465698242188
1313,903.771118164063
1312,981.2734375
1311,1064.22998046875
1310,1091.06982421875
1309,1119.50122070313
1308,1193.77233886719
1307,1280.13635253906
1306,1366.46252441406
1305,1466.77758789063
1304,1561.59619140625
1303,1627.69421386719
1302,1700.4306640625
1301,1803.04541015625
1300,1904.12487792969
1299,1988.94775390625
1298,2066.60375976563
1297,2135.81201171875
1296,2192.68823242188
1295,2251.03588867188
1294,2325.22216796875
1293,2418.86840820313
1292,2510.4853515625
1291,2556.24853515625
1290,2570.99291992188
1289,2594.89306640625
1288,2606.90063476563
1287,2594.09326171875
1286,2611.43994140625
1285,2660.486328125
1284,2668.75659179688
1283,2684.9892578125
1282,2816.4453125
1281,2995.8671875
1280,3137.60620117188
1279,3285.91259765625
1278,3479.23291015625
1277,3713.20458984375
1276,3985.78857421875
1275,4298.20751953125
1274,4642.2529296875
1273,5003.36328125
1272,5359.30859375
1271,5700.23974609375
1270,6038.2578125
1269,6343.708984375
1268,6553.125
1267,6660.3271484375
1266,6676.73193359375
1265,6567.75439453125
1264,6333.61474609375
1263,6065.5419921875
1262,5761.35595703125
1261,5322.68310546875
1260,4837.26513671875
1259,4458.19873046875
1258,4103.75244140625
1257,3696.89404296875
1256,3348.71337890625
1255,3097.32788085938
1254,2853.46313476563
1253,2607.537109375
1252,2403.96142578125
1251,2229.28930664063
1250,2056.2080078125
1249,1884.13330078125
1248,1726.13671875
1247,1607.20300292969
1246,1518.85363769531
1245,1426.56652832031
1244,1330.89636230469
1243,1246.34680175781
1242,1174.74096679688
1241,1111.94921875
1240,1048.54272460938
1239,985.714965820313
1238,935.51904296875
1237,893.966796875
1236,849.8779296875
1235,806.61279296875
1234,769.743103027344
1233,738.327819824219
1232,706.277221679688
1231,663.386840820313
1230,623.734558105469
1229,613.484924316406
1228,610.994323730469
1227,587.380737304688
1226,558.568969726563
1225,538.144409179688
1224,518.2919921875
1223,501.606536865234
1222,500.147552490234
1221,494.712646484375
1220,460.837493896484
1219,432.254089355469
1218,434.629272460938
1217,432.952209472656
1216,413.426025390625
1215,400.688568115234
1214,395.887908935547
1213,383.875427246094
1212,370.003082275391
1211,363.620025634766
1210,359.025543212891
1209,350.471405029297
1208,337.984405517578
1207,325.8720703125
1206,321.427917480469
1205,325.212097167969
1204,332.754821777344
1203,333.927185058594
1202,322.585540771484
1201,306.746337890625
1200,293.550323486328
1199,285.574981689453
1198,279.976745605469
1197,271.481323242188
1196,265.616912841797
1195,269.152069091797
1194,276.334655761719
1193,279.552703857422
1192,273.491882324219
1191,263.228393554688
1190,263.185394287109
1189,269.330200195313
1188,269.302795410156
1187,269.027282714844
1186,274.945983886719
1185,277.505035400391
1184,276.838043212891
1183,291.191162109375
1182,312.925445556641
1181,314.698059082031
1180,308.679077148438
1179,319.123168945313
1178,335.256622314453
1177,344.199951171875
1176,350.189819335938
1175,359.735229492188
1174,378.379302978516
1173,400.5341796875
1172,415.393676757813
1171,432.664123535156
1170,466.738586425781
1169,517.969421386719
1168,582.839721679688
1167,656.77490234375
1166,745.503112792969
1165,866.042907714844
1164,1032.541015625
1163,1251.89416503906
1162,1502.18200683594
1161,1757.44641113281
1160,2010.33142089844
1159,2244.38818359375
1158,2421.34765625
1157,2491.41162109375
1156,2402.29711914063
1155,2166.43359375
1154,1841.29052734375
1153,1527.169921875
1152,1299.97033691406
1151,1134.73791503906
1150,998.71435546875
1149,873.748229980469
1148,761.360290527344
1147,677.622253417969
1146,624.318054199219
1145,593.898559570313
1144,570.680053710938
1143,545.725036621094
1142,531.668334960938
1141,524.011657714844
1140,492.66259765625
1139,452.547393798828
1138,448.345550537109
1137,457.872985839844
1136,441.497222900391
1135,420.02392578125
1134,413.575347900391
1133,404.949005126953
1132,389.199523925781
1131,383.177520751953
1130,385.073760986328
1129,379.967926025391
1128,371.874359130859
1127,369.814300537109
1126,368.134185791016
1125,361.004852294922
1124,350.531158447266
1123,346.596618652344
1122,365.367706298828
1121,388.636871337891
1120,379.609619140625
1119,358.854431152344
1118,360.753265380859
1117,373.198303222656
1116,380.780364990234
1115,386.072052001953
1114,391.687561035156
1113,397.053161621094
1112,399.265716552734
1111,395.538635253906
1110,395.925628662109
1109,408.629638671875
1108,411.331726074219
1107,395.083282470703
1106,397.645782470703
1105,426.237396240234
1104,441.583740234375
1103,441.275634765625
1102,450.677978515625
1101,464.793090820313
1100,468.011688232422
1099,461.306823730469
1098,450.581115722656
1097,442.997344970703
1096,445.783538818359
1095,464.957611083984
1094,488.626129150391
1093,493.930999755859
1092,491.820373535156
1091,504.688262939453
1090,528.841186523438
1089,553.417663574219
1088,568.647155761719
1087,575.286499023438
1086,589.123901367188
1085,612.444580078125
1084,635.0625
1083,657.038940429688
1082,684.082153320313
1081,720.530334472656
1080,766.3427734375
1079,810.153625488281
1078,844.086181640625
1077,870.125366210938
1076,901.209716796875
1075,957.556518554688
1074,1025.99047851563
1073,1080.22082519531
1072,1141.51037597656
1071,1228.96166992188
1070,1295.37670898438
1069,1317.47106933594
1068,1344.83349609375
1067,1390.39611816406
1066,1415.5673828125
1065,1408.35339355469
1064,1379.72375488281
1063,1351.16235351563
1062,1341.78942871094
1061,1343.63696289063
1060,1344.88842773438
1059,1340.93225097656
1058,1339.22998046875
1057,1361.8017578125
1056,1414.01220703125
1055,1484.29638671875
1054,1546.77478027344
1053,1579.72180175781
1052,1618.38159179688
1051,1701.08483886719
1050,1823.89270019531
1049,1966.23608398438
1048,2093.35766601563
1047,2205.20971679688
1046,2337.52905273438
1045,2498.47827148438
1044,2678.17578125
1043,2873.77880859375
1042,3093.8916015625
1041,3378.3896484375
1040,3734.20239257813
1039,4082.9765625
1038,4416.27685546875
1037,4827.74072265625
1036,5317.2578125
1035,5811.13427734375
1034,6320.5615234375
1033,6879.4892578125
1032,7415.91455078125
1031,7859.90087890625
1030,8239.1513671875
1029,8541.259765625
1028,8658.2060546875
1027,8567.384765625
1026,8345.77734375
1025,8042.1474609375
1024,7676.28125
1023,7223.0673828125
1022,6665.12158203125
1021,6086.50341796875
1020,5555.16796875
1019,5044.603515625
1018,4549.3193359375
1017,4111.8623046875
1016,3749.1552734375
1015,3450.18188476563
1014,3189.61059570313
1013,2938.74877929688
1012,2692.11474609375
1011,2461.41357421875
1010,2288.06274414063
1009,2176.85009765625
1008,2049.50561523438
1007,1887.31701660156
1006,1754.19067382813
1005,1656.73010253906
1004,1556.3837890625
1003,1448.95544433594
1002,1348.4462890625
1001,1271.52648925781
1000,1225.8857421875
999,1191.28210449219
998,1152.14599609375
997,1110.15783691406
996,1071.30419921875
995,1043.65466308594
994,1024.95190429688
993,1006.29681396484
992,985.093322753906
991,960.5322265625
990,926.905395507813
989,882.619201660156
988,840.313110351563
987,799.891235351563
986,737.783752441406
985,664.173889160156
984,622.943298339844
983,605.582275390625
982,573.773376464844
981,536.877197265625
980,516.321899414063
979,497.836883544922
978,468.522338867188
977,442.535247802734
976,427.305908203125
975,412.958801269531
974,395.032409667969
973,376.460266113281
972,362.863037109375
971,359.7001953125
970,360.529815673828
969,356.633697509766
968,350.713806152344
967,347.366394042969
966,348.407806396484
965,352.714111328125
964,355.279602050781
963,354.853820800781
962,354.493927001953
961,357.390960693359
960,366.465423583984
959,383.043884277344
958,408.129516601563
957,444.309234619141
956,491.232238769531
955,539.640502929688
954,584.451416015625
953,629.517822265625
952,661.134765625
951,648.634460449219
950,607.459838867188
949,579.749450683594
948,551.016357421875
947,491.758819580078
946,427.842315673828
945,387.612731933594
944,359.197784423828
943,333.205474853516
942,318.112365722656
941,314.921752929688
940,313.661987304688
939,311.171997070313
938,309.4892578125
937,303.773773193359
936,288.847045898438
935,277.443267822266
934,280.915618896484
933,286.084381103516
932,283.726318359375
931,283.643646240234
930,289.790283203125
929,294.954315185547
928,297.673492431641
927,302.205657958984
926,309.452331542969
925,317.927001953125
924,324.752990722656
923,328.464691162109
922,335.370269775391
921,349.179901123047
920,362.167358398438
919,368.702575683594
918,369.734039306641
917,371.523864746094
916,384.653839111328
915,408.041931152344
914,432.459442138672
913,453.433868408203
912,469.941345214844
911,486.209716796875
910,508.170196533203
909,541.911682128906
908,585.906066894531
907,623.124877929688
906,644.7451171875
905,655.822265625
904,663.138671875
903,673.150451660156
902,681.440307617188
901,679.114379882813
900,671.969299316406
899,669.769958496094
898,673.7431640625
897,677.342041015625
896,659.435913085938
895,624.013366699219
894,622.308715820313
893,658.356201171875
892,676.731201171875
891,664.432678222656
890,644.617126464844
889,630.8447265625
888,627.192810058594
887,616.426147460938
886,582.743835449219
885,544.103942871094
884,517.193969726563
883,496.636779785156
882,476.738403320313
881,456.823638916016
880,442.969390869141
879,446.760223388672
878,459.357421875
877,459.581176757813
876,454.082427978516
875,461.039489746094
874,483.285949707031
873,518.114013671875
872,561.651245117188
871,601.360046386719
870,605.641845703125
869,564.920715332031
868,507.937744140625
867,457.718017578125
866,426.619659423828
865,413.032897949219
864,406.305297851563
863,403.194946289063
862,404.666931152344
861,413.696258544922
860,430.020538330078
859,439.659576416016
858,438.409851074219
857,451.664459228516
856,487.532501220703
855,520.587036132813
854,542.538269042969
853,566.542053222656
852,596.195068359375
851,626.5263671875
850,648.627197265625
849,655.099853515625
848,658.366455078125
847,668.336181640625
846,659.082275390625
845,617.05859375
844,580.487670898438
843,568.054260253906
842,552.215454101563
841,529.115356445313
840,526.775085449219
839,545.953186035156
838,564.796508789063
837,577.570983886719
836,588.275817871094
835,600.979248046875
834,618.233459472656
833,636.231201171875
832,653.803100585938
831,682.016296386719
830,723.897766113281
829,762.929626464844
828,794.515014648438
827,832.617736816406
826,878.106262207031
825,919.51123046875
824,962.959411621094
823,1023.2958984375
822,1088.5478515625
821,1141.7666015625
820,1205.31982421875
819,1300.69067382813
818,1403.02062988281
817,1503.5947265625
816,1654.62658691406
815,1884.51098632813
814,2169.38671875
813,2513.25244140625
812,2957.98754882813
811,3547.18432617188
810,4335.70068359375
809,5495.755859375
808,7258.04931640625
807,9789.99609375
806,13266.4443359375
805,18010.421875
804,24188.703125
803,31367.705078125
802,38390.015625
801,42834.74609375
800,43055.46484375
799,38847.59375
798,31630.650390625
797,24316.44140625
796,18315.845703125
795,13804.328125
794,10562.7392578125
793,8199.83203125
792,6474.50634765625
791,5216.71435546875
790,4313.19189453125
789,3673.63452148438
788,3231.22216796875
787,2925.09423828125
786,2698.35913085938
785,2514.31567382813
784,2365.14453125
783,2257.35522460938
782,2206.35620117188
781,2175.84936523438
780,2101.1435546875
779,2014.92614746094
778,1984.1865234375
777,1962.615234375
776,1884.24279785156
775,1782.98486328125
774,1699.54760742188
773,1616.72253417969
772,1517.3388671875
771,1406.50109863281
770,1298.26696777344
769,1215.00183105469
768,1154.66906738281
767,1090.11853027344
766,1027.12475585938
765,993.5966796875
764,967.998657226563
763,909.269409179688
762,838.833312988281
761,795.851013183594
760,781.570373535156
759,782.299011230469
758,771.72021484375
757,735.171813964844
756,690.839965820313
755,656.807250976563
754,642.814453125
753,643.659057617188
752,637.706359863281
751,619.330444335938
750,597.80810546875
749,577.989990234375
748,560.763000488281
747,541.464721679688
746,514.819763183594
745,486.778533935547
744,465.382568359375
743,451.683166503906
742,442.225158691406
741,425.848052978516
740,399.649322509766
739,379.771484375
738,372.203826904297
737,364.923461914063
736,354.076843261719
735,345.981719970703
734,341.952911376953
733,338.746215820313
732,332.131408691406
731,318.485321044922
730,302.257568359375
729,289.870971679688
728,279.767425537109
727,270.303894042969
726,268.717376708984
725,276.889343261719
724,277.520324707031
723,263.488189697266
722,252.810455322266
721,251.347915649414
720,244.243423461914
719,231.287750244141
718,228.390563964844
717,234.140594482422
716,234.088027954102
715,228.266616821289
714,224.450561523438
713,222.444030761719
712,218.841323852539
711,212.044860839844
710,203.57536315918
709,204.357452392578
708,217.727233886719
707,220.646682739258
706,203.122970581055
705,189.85090637207
704,194.440811157227
703,207.636047363281
702,216.135864257813
701,205.616806030273
700,186.874053955078
699,189.205337524414
698,207.076416015625
697,215.968536376953
696,222.65690612793
695,246.038375854492
694,286.581665039063
693,338.64794921875
692,398.881652832031
691,460.152191162109
690,501.805023193359
689,505.040435791016
688,461.494659423828
687,381.247863769531
686,303.211120605469
685,250.943069458008
684,223.842102050781
683,212.884201049805
682,203.078628540039
681,191.414245605469
680,183.786148071289
679,181.505264282227
678,182.706451416016
677,182.821258544922
676,178.239547729492
675,176.624694824219
674,184.801635742188
673,191.86540222168
672,189.131790161133
671,186.842010498047
670,192.645980834961
669,201.156234741211
668,208.434387207031
667,215.778060913086
666,224.168991088867
665,233.398681640625
664,239.653213500977
663,236.240768432617
662,225.19367980957
661,214.444458007813
660,203.45930480957
659,188.371551513672
658,177.989639282227
657,182.952178955078
656,192.746871948242
655,193.801452636719
654,189.376342773438
653,187.201385498047
652,195.531066894531
651,213.682022094727
650,220.200119018555
649,208.780776977539
648,204.974685668945
647,219.157897949219
646,236.633209228516
645,252.988739013672
644,276.618499755859
643,311.508331298828
642,356.910430908203
641,406.31640625
640,448.944671630859
639,469.037750244141
638,451.967620849609
637,406.310577392578
636,349.855133056641
635,300.772583007813
634,273.033782958984
633,264.902435302734
632,268.136474609375
631,266.409027099609
630,252.879928588867
629,243.885162353516
628,247.722229003906
627,254.370269775391
626,258.303924560547
625,262.14453125
624,267.455627441406
623,273.888488769531
622,277.103546142578
621,270.378692626953
620,256.593475341797
619,244.230804443359
618,236.096267700195
617,231.895095825195
616,230.278381347656
615,229.536972045898
614,228.200546264648
613,225.505599975586
612,223.081176757813
611,221.738784790039
610,218.268798828125
609,211.474914550781
608,206.370635986328
607,206.292388916016
606,210.025207519531
605,215.517440795898
604,220.254257202148
603,223.295989990234
602,225.538650512695
601,228.09455871582
600,231.966613769531
599,235.190353393555
598,234.092971801758
597,229.514236450195
596,224.398071289063
595,217.593322753906
594,207.835205078125
593,204.302032470703
592,214.911575317383
591,224.609741210938
590,219.720016479492
589,214.566864013672
588,221.021270751953
587,226.975509643555
586,225.830017089844
585,232.03825378418
584,249.788131713867
583,260.639099121094
582,260.129516601563
581,266.297210693359
580,283.485076904297
579,298.961669921875
578,309.994567871094
577,323.371032714844
576,337.460327148438
575,344.600799560547
574,343.09033203125
573,335.692413330078
572,331.377197265625
571,339.261352539063
570,350.276672363281
569,352.328826904297
568,353.821655273438
567,364.931488037109
566,377.620910644531
565,383.041473388672
564,383.869934082031
563,385.176635742188
562,392.368896484375
561,407.460052490234
560,425.454528808594
559,437.459197998047
558,430.049102783203
557,409.286895751953
556,406.839874267578
555,426.429229736328
554,440.298889160156
553,442.776062011719
552,448.685272216797
551,460.371398925781
550,470.829803466797
549,477.815002441406
548,482.687072753906
547,491.635803222656
546,510.349609375
545,525.60693359375
544,522.893859863281
543,520.972106933594
542,541.399353027344
541,571.715881347656
540,597.786254882813
539,630.180847167969
538,677.383911132813
537,727.811584472656
536,774.692199707031
535,829.597778320313
534,899.875854492188
533,980.4267578125
532,1060.1142578125
531,1120.87097167969
530,1152.03234863281
529,1153.462890625
528,1136.69030761719
527,1123.26403808594
526,1107.32250976563
525,1061.47741699219
524,998.09716796875
523,954.44189453125
522,918.00048828125
521,851.879150390625
520,771.698120117188
519,713.750122070313
518,673.572143554688
517,633.368408203125
516,595.796630859375
515,567.658020019531
514,542.787963867188
513,514.751647949219
512,489.542205810547
511,473.016296386719
510,461.981628417969
509,451.938629150391
508,439.397247314453
507,424.287292480469
506,413.264831542969
505,409.712127685547
504,409.846282958984
503,407.855255126953
502,396.343902587891
501,379.481994628906
500,375.111083984375
499,383.6337890625
498,387.214447021484
497,383.075622558594
496,381.902587890625
495,386.030853271484
494,391.222991943359
493,393.314666748047
492,389.755279541016
491,391.346801757813
490,411.865203857422
489,434.354888916016
488,435.404815673828
487,436.699310302734
486,466.333587646484
485,498.630645751953
484,502.932342529297
483,499.109283447266
482,511.033020019531
481,529.808715820313
480,544.576782226563
479,559.889404296875
478,577.283447265625
477,583.890502929688
476,574.435180664063
475,564.120300292969
474,563.447326660156
473,569.836853027344
472,575.919311523438
471,569.420471191406
470,551.312622070313
469,539.847534179688
468,537.305053710938
467,527.55078125
466,512.880737304688
465,512.941101074219
464,523.085205078125
463,519.745178222656
462,505.575714111328
461,500.695556640625
460,505.199859619141
459,507.987060546875
458,510.955627441406
457,521.902893066406
456,540.27490234375
455,562.012878417969
454,585.1728515625
453,607.870666503906
452,624.063720703125
451,629.762878417969
450,636.671142578125
449,655.892700195313
448,678.890808105469
447,697.565185546875
446,720.9970703125
445,756.47705078125
444,796.211669921875
443,834.003784179688
442,874.013977050781
441,924.785034179688
440,1000.66186523438
439,1100.39050292969
438,1193.28869628906
437,1271.88305664063
436,1370.07067871094
435,1503.62341308594
434,1658.14086914063
433,1821.28771972656
432,1985.97290039063
431,2146.1201171875
430,2296.279296875
429,2428.57934570313
428,2534.0654296875
427,2623.73657226563
426,2722.56274414063
425,2821.92163085938
424,2890.93505859375
423,2925.05200195313
422,2937.4736328125
421,2948.27587890625
420,2977.46630859375
419,3014.46728515625
418,3032.53173828125
417,2996.421875
416,2876.64868164063
415,2700.24267578125
414,2505.76000976563
413,2281.15014648438
412,2009.89025878906
411,1730.61657714844
410,1492.77624511719
409,1326.31665039063
408,1244.63623046875
407,1220.544921875
406,1223.2294921875
405,1237.57739257813
404,1255.44812011719
403,1279.32983398438
402,1303.58276367188
401,1299.44702148438
400,1255.10510253906
399,1200.81201171875
398,1159.466796875
397,1130.75366210938
396,1114.49682617188
395,1114.837890625
394,1135.09631347656
393,1176.84448242188
392,1243.34729003906
391,1339.70703125
390,1453.54528808594
389,1553.18884277344
388,1641.1796875
387,1754.74499511719
386,1880.19494628906
385,1957.07287597656
384,1976.71984863281
383,1974.29223632813
382,1958.28186035156
381,1916.400390625
380,1844.60229492188
379,1745.50732421875
378,1628.70043945313
377,1507.41125488281
376,1389.29077148438
375,1278.693359375
374,1178.61120605469
373,1090.6904296875
372,1011.52795410156
371,936.588562011719
370,868.796325683594
369,812.389038085938
368,761.615356445313
367,709.572875976563
366,662.269775390625
365,627.695495605469
364,603.49853515625
363,584.312255859375
362,564.778747558594
361,541.590637207031
360,519.128845214844
359,502.129150390625
358,490.437866210938
357,481.955535888672
356,471.800720214844
355,458.451812744141
354,451.058044433594
353,453.717620849609
352,453.460357666016
351,443.314208984375
350,435.738922119141
349,437.679718017578
348,439.294830322266
347,434.437286376953
346,427.738800048828
345,422.865936279297
344,419.831787109375
343,420.606323242188
342,430.630493164063
341,447.048614501953
340,454.864440917969
339,450.285614013672
338,445.489410400391
337,447.695007324219
336,456.618438720703
335,469.046508789063
334,479.049255371094
333,482.383911132813
332,477.077423095703
331,468.980499267578
330,470.545104980469
329,479.155090332031
328,479.408630371094
327,469.570190429688
326,459.415649414063
325,457.379486083984
324,469.404937744141
323,485.501556396484
322,486.812835693359
321,482.413146972656
320,496.571197509766
319,518.831420898438
318,521.161682128906
317,511.350952148438
316,514.321472167969
315,526.295043945313
314,530.581909179688
313,528.620239257813
312,529.873962402344
311,537.425903320313
310,549.828002929688
309,554.519165039063
308,539.546813964844
307,526.338928222656
306,541.453674316406
305,565.132019042969
304,568.485473632813
303,564.471069335938
302,574.365966796875
301,590.031494140625
300,597.378601074219
299,597.769897460938
298,596.439575195313
297,595.787292480469
296,597.942687988281
295,607.084289550781
294,624.729736328125
293,640.307861328125
292,645.545837402344
291,650.510192871094
290,664.105773925781
289,677.85791015625
288,682.757751464844
287,679.3828125
286,671.36328125
285,665.804260253906
284,667.484375
283,673.029235839844
282,676.475463867188
281,668.775024414063
280,649.28955078125
279,639.177429199219
278,648.668273925781
277,655.113525390625
276,644.368408203125
275,631.101623535156
274,626.504516601563
273,626.574462890625
272,627.16064453125
271,627.590698242188
270,630.228210449219
269,642.256530761719
268,660.936584472656
267,665.079772949219
266,650.675170898438
265,645.950561523438
264,659.1982421875
263,661.377868652344
262,639.906860351563
261,613.066345214844
260,593.444458007813
259,581.107971191406
258,573.454711914063
257,565.64501953125
256,557.778259277344
255,556.778137207031
254,562.512756347656
253,565.098388671875
252,561.142883300781
251,556.238647460938
250,553.655517578125
249,553.075317382813
248,552.260925292969
247,547.115661621094
246,537.57373046875
245,528.219787597656
244,522.774230957031
243,523.507385253906
242,526.815551757813
241,523.529663085938
240,517.74755859375
239,526.483215332031
238,546.629028320313
237,555.399475097656
236,546.711120605469
235,531.368347167969
234,521.638671875
233,529.619873046875
232,550.024841308594
231,562.464477539063
230,557.857482910156
229,538.305114746094
228,519.264831542969
227,525.279724121094
226,547.0712890625
225,549.203979492188
224,533.263549804688
223,529.58251953125
222,537.450561523438
221,532.690673828125
220,518.663269042969
219,519.030090332031
218,534.633972167969
217,549.352233886719
216,557.439453125
215,561.008483886719
214,560.096008300781
213,553.332153320313
212,542.5166015625
211,532.021484375
210,530.027282714844
209,545.767456054688
208,568.456237792969
207,575.628662109375
206,571.007263183594
205,574.489685058594
204,585.631408691406
203,591.325622558594
202,591.4453125
201,593.747924804688
200,596.848388671875
199,594.374450683594
198,591.65576171875
197,600.161926269531
196,615.738159179688
195,625.587341308594
194,631.320617675781
193,642.572998046875
192,657.25732421875
191,666.787658691406
190,671.641540527344
189,677.617858886719
188,687.352661132813
187,701.530334472656
186,721.072265625
185,746.430236816406
184,771.396545410156
183,786.973449707031
182,796.861572265625
181,811.237243652344
180,828.240417480469
179,840.043640136719
178,851.979431152344
177,875.675048828125
176,906.291870117188
175,930.458251953125
174,948.351379394531
173,967.532958984375
172,988.049682617188
171,1006.19061279297
170,1026.16101074219
169,1055.17114257813
168,1082.37365722656
167,1089.46691894531
166,1092.97705078125
165,1125.8173828125
164,1173.30834960938
163,1196.24401855469
162,1199.95190429688
161,1214.04040527344
160,1238.45434570313
159,1256.51538085938
158,1268.87109375
157,1285.94934082031
156,1307.66882324219
155,1327.79125976563
154,1344.63659667969
153,1359.63635253906
152,1376.70483398438
151,1400.44555664063
150,1425.85144042969
